wl [nm],fluo [1/mWms],raman [1/mWms]
810.6452265776422,1.3119069549939484,0.05126781258151766
810.7915068312758,1.3111992837815063,0.059593272979965924
810.9377435935828,1.310465584359343,0.04142083771703199
811.0839368645636,1.309706238286548,0.04424471743553519
811.2300866442183,1.3089216241965609,0.04536932310733055
811.3761929325467,1.3081121178097719,0.03863130846171044
811.522255729549,1.3072780919461056,0.02627379552003941
811.6682750352251,1.3064199165375767,0.046816132796015715
811.8142508495747,1.3055379586408231,0.04372689816494676
811.9601831725982,1.3046325824496126,0.021995435831130283
812.1060720042954,1.3037041493073276,0.028947714204204833
812.2519173446665,1.3027530177194235,0.0286891899274009
812.3977191937113,1.3017795433658632,0.0347607546958324
812.5434775514299,1.3007840791135303,0.0232380348711771
812.6891924178221,1.2997669750286118,0.030506917168504375
812.8348637928882,1.2987285783889615,0.024721304347649912
812.9804916766283,1.2976692336964382,0.026312169167021168
813.1260760690418,1.2965892826892174,0.027206616619419945
813.2716169701291,1.2954890643540815,0.014272641510578417
813.4171143798903,1.2943689149386832,0.018742967801089645
813.5625682983252,1.2932291679637868,0.012341867163932664
813.7079787254338,1.292070154235482,0.027805002079418047
813.8533456612164,1.2908922018573774,0.023929688698475306
813.9986691056724,1.2896956362427667,0.02262712506379103
814.1439490588026,1.288480780126772,0.01954020177579542
814.2891855206062,1.28724795357846,0.023217028025883896
814.434378491084,1.2859974740129396,0.036562951410367535
814.5795279702353,1.284729656203429,0.0315942772444698
814.7246339580603,1.2834448122933013,0.025854583809212132
814.8696964545592,1.2821432518081073,0.01754291294142604
815.0147154597316,1.2808252816675696,0.0026936712030401397
815.1596909735779,1.2794912061975576,0.001511833390396742
815.304622996098,1.2781413271420328,0.0006965158810109222
815.449511527292,1.2767759436749744,0.0006249260311258415
815.5943565671596,1.275395352412278,0.0037079859048899377
815.739158115701,1.2739998474236307,0.0005573606440842783
815.8839161729163,1.2725897202443615,4.6752051455349336e-05
816.0286307388052,1.2711652598872663,0.0017456384197769063
816.173301813368,1.269726752854413,0.0029902009632647745
816.3179293966043,1.2682744831489159,0.000339683110243361
816.4625134885146,1.2668087322866906,0.007134870343997206
816.6070540890987,1.2653297793081828,0.00024325212770530085
816.7515511983563,1.2638379007900713,0.007829112733986711
816.8960048162877,1.2623333708569513,0.008558819318936144
817.0404149428931,1.2608164611929857,0.010032973820428687
817.1847815781723,1.2592874410535422,0.004208975446295321
817.3291047221251,1.2577465772767953,0.017093390691732845
817.4733843747516,1.2561941342953118,0.02885440877558204
817.617620536052,1.2546303741476093,0.029823120375683108
817.7618132060263,1.2530555564896892,0.02304266461329182
817.9059623846741,1.2514699386065473,0.01990999714240976
818.0500680719957,1.2498737754236586,0.029207678436759196
818.1941302679912,1.2482673195184395,0.017306166206505273
818.3381489726604,1.2466508211316831,0.028098846784392242
818.4821241860034,1.2450245281789722,0.030918386016262258
818.62605590802,1.243388686262068,0.016704805453875732
818.7699441387105,1.2417435386802735,0.020180993702269497
818.9137888780748,1.240089326441771,0.010080109711458837
819.0575901261128,1.2384262882749402,0.006117791146661917
819.2013478828245,1.236754660639647,0.0065508834479507914
819.3450621482101,1.2350746777385098,0.007750050404480555
819.4887329222695,1.2333865715281425,0.00024325212770530085
819.6323602050026,1.231690571730371,0.00024325212770530085
819.7759439964093,1.229986905843427,0.00024325212770530085
819.9194842964898,1.2282757991531175,0.003612813866948972
820.0629811052445,1.226557474743968,0.00024325212770530085
820.2064344226726,1.2248321535103444,0.01565522718979194
820.3498442487746,1.2231000541675472,0.006314725050570745
820.4932105835501,1.2213613932628846,0.007531890262899161
820.6365334269997,1.2196163851867192,0.0014491237375661092
820.7798127791227,1.2178652421834901,0.00024325212770530085
820.9230486399198,1.2161081743627127,0.005949102118332611
821.0662410093905,1.2143453897099517,0.008641445181662325
821.2093898875349,1.212577094097772,0.004089110726642992
821.3524952743534,1.2108034912966632,0.00356986796019849
821.4955571698455,1.209024782985942,0.0047191183229652565
821.6385755740113,1.2072411687646272,0.0036332356557241628
821.7815504868507,1.2054528461622938,0.009520003584477868
821.9244819083641,1.2036600106499007,0.007398053552820924
822.0673698385511,1.2018628556505937,0.023434199210079755
822.210214277412,1.2000615725504855,0.026156856405823978
822.3530152249466,1.198256350709412,0.030052264432813898
822.4957726811551,1.19644737747166,0.029324077168495652
822.6384866460373,1.1946348381766765,0.03803480708152963
822.7811571195932,1.1928189161697493,0.03739928220450439
822.9237841018228,1.1909997928126654,0.04181104754206955
823.0663675927265,1.1891776474943434,0.03865473321385042
823.2089075923036,1.1873526576414433,0.03453477333899033
823.3514041005545,1.1855249987289516,0.03804288031402617
823.4938571174793,1.1836948442907398,0.027817316326375685
823.6362666430779,1.1818623659301024,0.030721916739984756
823.7786326773503,1.1800277333302676,0.02898877005404127
823.9209552202964,1.178191114264884,0.025955232849842316
824.063234271916,1.176352674608485,0.034392387348946826
824.2054698322096,1.1745125783469261,0.01806985876635596
824.3476619011769,1.1726709875877999,0.022481757241492793
824.4898104788181,1.1708280625708254,0.01933549290861209
824.6319155651329,1.1689839616782143,0.01929425314308719
824.7739771601216,1.1671388414450115,0.012631253466694314
824.915995263784,1.165292856569412,0.019393423191395833
825.0579698761203,1.163446159923055,0.008590258075768641
825.1999009971303,1.1615989025612887,0.008480110872556486
825.3417886268138,1.159751233733418,0.007530396496585757
825.4836327651714,1.157903300892921,0.01481406254488306
825.6254334122026,1.156055249707646,0.00568508960241007
825.7671905679076,1.1542072240699819,0.0016804859866929643
825.9089042322864,1.152359366107003,0.002853806028060157
826.0505744053389,1.1505118161905943,0.0011394653250596234
826.1922010870653,1.1486647129475458,0.00024325212770530085
826.3337842774652,1.1468181932696286,0.005771720171430039
826.4753239765391,1.1449723923236428,0.00024325212770530085
826.6168201842868,1.1431274435614418,0.008738985419439745
826.7582729007083,1.141283478729934,0.00024325212770530085
826.8996821258032,1.1394406278810574,0.00024325212770530085
827.0410478595721,1.1375990193817322,0.00024325212770530085
827.1823701020147,1.1357587799237885,0.00024325212770530085
827.3236488531312,1.1339200345338678,0.0009429396732949289
827.4648841129215,1.132082906583303,0.00024325212770530085
827.6060758813853,1.130247517797972,0.00024325212770530085
827.7472241585233,1.1284139882681286,0.00024325212770530085
827.8883289443347,1.1265824364582069,0.002659032185741755
828.0293902388199,1.1247529792166036,0.000809900863988682
828.1704080419789,1.1229257317854338,0.00024325212770530085
828.3113823538118,1.1211008078102649,0.00024325212770530085
828.4523131743182,1.1192783193498241,0.0043973608633740904
828.5932005034987,1.1174583768856818,0.0005429540384922383
828.7340443413527,1.115641089331913,0.00024325212770530085
828.8748446878806,1.11382656404473,0.004513726393921528
829.0156015430823,1.112014906832095,0.004529351451740625
829.1563149069575,1.1102062219633064,0.00024325212770530085
829.2969847795067,1.1084006121785606,0.0003566921655124483
829.4376111607297,1.1065981786984893,0.0015541956763025573
829.5781940506264,1.1047990212336747,0.00029960235154178987
829.718733449197,1.103003237994137,0.014538105348611888
829.859229356441,1.1012109256987992,0.006619284447905067
829.999681772359,1.099422179584929,0.00703585869120252
830.1400906969507,1.0976370934175539,0.009361284738503365
830.2804561302162,1.0958557594988523,0.018682455494375413
830.4207780721555,1.0940782686775223,0.024324931801347562
830.5610565227686,1.0923047103581245,0.023090775222658875
830.7012914820555,1.0905351725103989,0.009217735629582072
830.841482950016,1.0887697416785622,0.013505234081397317
830.9816309266503,1.087008502990576,0.012417131645955194
831.1217354119583,1.0852515401673923,0.020098926733410523
831.2617964059402,1.0834989355321758,0.008462858169157837
831.4018139085962,1.0817507700195006,0.006879352392996505
831.5417879199254,1.0800071231845223,0.006133417954866113
831.6817184399284,1.078268073212127,0.002167961907081218
831.8216054686055,1.0765336969260555,0.0031825778045160686
831.9614490059563,1.074804069798001,0.00024325212770530085
832.1012490519806,1.0730792659566872,0.009161107687450428
832.2410056066789,1.0713593581969172,0.00024325212770530085
832.3807186700508,1.0696444179886009,0.010625114674921301
832.5203882420967,1.0679345154857567,0.00024325212770530085
832.6600143228163,1.0662297195354902,0.00024325212770530085
832.7995969122095,1.0645300976869467,0.011071138793571801
832.9391360102767,1.0628357162002415,0.00024325212770530085
833.0786316170173,1.0611466400553635,0.00024325212770530085
833.218083732432,1.0594629329610574,0.00832822945252757
833.3574923565202,1.0577846573636782,0.005536084869838165
833.4968574892825,1.0561118744560238,0.0019547235450744875
833.6361791307186,1.0544446441861426,0.0025032153428222116
833.7754572808279,1.0527830252661163,0.00024325212770530085
833.9146919396113,1.051127075180819,0.00833171981178734
834.0538831070686,1.0494768501966512,0.004975205633958047
834.1930307831998,1.04783240537025,0.0063715196081572615
834.3321349680043,1.0461937945571753,0.001057557253919815
834.4711956614827,1.044561070420571,0.0028775306734490956
834.6102128636351,1.0429342844398017,0.00024325212770530085
834.7491865744611,1.0413134869190657,0.00024325212770530085
834.8881167939608,1.0396987269959832,0.00024325212770530085
835.0270035221344,1.038090052650161,0.00024325212770530085
835.1658467589817,1.0364875107117313,0.00024325212770530085
835.3046465045027,1.0348911468698672,0.002354913426141138
835.4434027586979,1.0333010056812744,0.00024325212770530085
835.5821155215663,1.0317171305786565,0.0018233759646391263
835.7207847931088,1.030139563879159,0.00024325212770530085
835.8594105733248,1.0285683467927862,0.00024325212770530085
835.9979928622148,1.0270035194307943,0.0008194575745920492
836.1365316597785,1.0254451208140622,0.00024325212770530085
836.2750269660157,1.0238931888814353,0.003016894180325555
836.4134787809271,1.022347760498046,0.00024325212770530085
836.551887104512,1.0208088714636105,0.0028255351839666567
836.6902519367708,1.019276556520701,0.004067150503547124
836.8285732777033,1.0177508493629916,0.0025896966369257897
836.9668511273096,1.016231782643484,0.009104093924254462
837.1050854855896,1.0147193879827034,0.009634616430069189
837.2432763525431,1.0132136959768756,0.014087175863109643
837.381423728171,1.0117147362060759,0.02340569542819685
837.5195276124722,1.010222537242355,0.015182711054139451
837.6575880054476,1.008737126657841,0.016776055624292543
837.7956049070963,1.0072585310328157,0.015482643305512075
837.9335783174188,1.0057867759637675,0.013641456782875348
838.0715082364153,1.0043218860714207,0.011858928167256005
838.2093946640855,1.0028638850087392,0.00024325212770530085
838.3472376004293,1.0014127954689054,0.00024325212770530085
838.4850370454469,0.999968639193277,0.006306929640667267
838.6227929991385,0.9985314369793165,0.001868541796057728
838.7605054615037,0.9971012086884995,0.004026437758689028
838.8981744325425,0.9956779732541956,0.007088231117705268
839.0357999122556,0.9942617486895282,0.001156209451793984
839.173381900642,0.992852552095206,0.009468192734740184
839.3109203977021,0.9914503996673336,0.0004651105624661096
839.4484154034362,0.9900553067051969,0.010257818598565652
839.5858669178441,0.9886672876190227,0.005100943590212829
839.7232749409258,0.9872863559377159,0.011878685273377135
839.8606394726811,0.9859125243165698,0.0022144087477061892
839.9979605131102,0.9845458045449568,0.00986792344076527
840.135238062213,0.9831862075539877,0.0019657903670230064
840.2724721199897,0.9818337434241546,0.0016708002388747375
840.4096626864401,0.9804884213929419,0.00024325212770530085
840.5468097615643,0.9791502498624192,0.00024325212770530085
840.6839133453623,0.977819236406806,0.003320309027342703
840.8209734378339,0.9764953877800129,0.00024325212770530085
840.9579900389795,0.9751787099231599,0.005237608888868076
841.0949631487987,0.9738692079720683,0.0031169592485468735
841.2318927672917,0.9725668862647291,0.00024325212770530085
841.3687788944585,0.9712717483487485,0.00024325212770530085
841.5056215302991,0.9699837969887661,0.0027298828051302384
841.6424206748134,0.9687030341738512,0.00024325212770530085
841.7791763280012,0.9674294611248739,0.00856803116780919
841.9158884898633,0.9661630783018513,0.0039966522772664085
842.0525571603987,0.9649038854112713,0.006145475021226958
842.1891823396084,0.9636518814133884,0.0033168302268175185
842.3257640274913,0.9624070645295002,0.0017836320354142046
842.4623022240484,0.9611694322491945,0.0035542924477632858
842.5987969292788,0.9599389813375753,0.00024325212770530085
842.7352481431834,0.9587157078424635,0.004488698692694155
842.8716558657616,0.9574996071015737,0.01163537037877037
843.0080200970135,0.9562906737496648,0.01123778148254664
843.1443408369393,0.9550889017256695,0.011081958073543528
843.2806180855388,0.953894284279796,0.013466199630511674
843.4168518428119,0.9527068139806081,0.011203527934874728
843.553042108759,0.9515264827220792,0.015001446790489632
843.6891888833799,0.9503532817306232,0.012421772671584012
843.8252921666742,0.9491872015720992,0.013509935322523512
843.9613519586426,0.9480282321587948,0.005282888528339054
844.0973682592848,0.9468763627563822,0.00024325212770530085
844.2333410686006,0.9457315819908513,0.005938214478789562
844.3692703865903,0.9445938778554185,0.006730813024192965
844.5051562132538,0.9434632377174108,0.0033466818688229977
844.6409985485907,0.9423396483251255,0.00024325212770530085
844.7767973926018,0.9412230958146665,0.00024325212770530085
844.9125527452862,0.9401135657167534,0.00024325212770530085
845.0482646066447,0.9390110429635119,0.00476185853566802
845.1839329766769,0.9379155118952328,0.0012413501143361757
845.319557855383,0.9368269562671115,0.00024325212770530085
845.4551392427628,0.9357453592559627,0.0015259492172461672
845.5906771388162,0.934670703466909,0.0075664500516612375
845.7261715435435,0.9336029709400443,0.008795166922554228
845.8616224569446,0.9325421431570788,0.013429162118712925
845.9970298790194,0.9314882010479515,0.01798891687171048
846.132393809768,0.9304411249974238,0.020290406425152747
846.2677142491902,0.9294008948516473,0.019438519269458714
846.4029911972864,0.9283674899247073,0.01893145599873088
846.5382246540562,0.9273408890051411,0.018580456691724697
846.6734146194998,0.9263210703624334,0.01355896300670135
846.8085610936173,0.9253080117534865,0.011103085581911028
846.9436640764086,0.9243016904290662,0.01975803648013131
847.0787235678736,0.9233020831402234,0.02265686697588661
847.2137395680121,0.9223091661446917,0.04025926940540529
847.3487120768245,0.9213229152132596,0.04330520306715782
847.4836410943108,0.9203433056361207,0.061058732684841605
847.6185266204708,0.9193703122291961,0.06414556373545412
847.7533686553046,0.9184039093404356,0.07843481630095238
847.8881671988121,0.9174440708560936,0.09821390234312709
848.0229222509934,0.9164907702069781,0.11658498122287417
848.1576338118484,0.9155439803746805,0.14704833220905872
848.2923018813773,0.9146036738977771,0.19169760514334624
848.4269264595798,0.913669822878005,0.22193101167925516
848.5615075464561,0.9127423989864207,0.2470196675019983
848.6960451420064,0.9118213734695251,0.24707831920013212
848.8305392462303,0.9109067171553711,0.23014477699104788
848.9649898591279,0.9099984004596442,0.18990432083831899
849.0993969806993,0.9090963933917178,0.1491442508985477
849.2337606109445,0.908200665560687,0.10381130806304364
849.3680807498635,0.9073111861813754,0.06513562894846164
849.5023573974561,0.9064279240803186,0.03593849287712356
849.6365905537227,0.9055508477017228,0.017130141488431314
849.7707802186628,0.904679925113402,0.0045234673165075664
849.9049263922769,0.9038151240126846,0.00024325212770530085
850.0390290745648,0.9029564117323028,0.00024325212770530085
850.1730882655263,0.9021037552462524,0.00024325212770530085
850.3071039651616,0.9012571211756316,0.00024325212770530085
850.4410761734706,0.9004164757944522,0.00024325212770530085
850.5750048904537,0.8995817850354295,0.00024325212770530085
850.7088901161101,0.8987530144957478,0.0007941969821677049
850.8427318504405,0.8979301294427977,-0.00024325212770530085
850.9765300934447,0.8971130948198932,0.0062572981709501894
851.1102848451227,0.8963018752519638,0.003976490024870985
851.2439961054741,0.89549643505122,0.005821874898066408
851.3776638744997,0.8946967382227969,0.014471957346378987
851.511288152199,0.8939027484703718,0.014980990960685982
851.6448689385718,0.8931144292017587,0.018832385390094433
851.7784062336185,0.8923317435344775,0.020352440353980244
851.911900037339,0.8915546543012994,0.013261308446619715
852.0453503497333,0.890783124055768,0.013671479098818403
852.1787571708012,0.8900171150776957,0.007341831883999055
852.3121205005431,0.8892565893786352,0.004010305584944525
852.4454403389586,0.8885015087073289,0.005357147589459391
852.578716686048,0.8877518345551307,-0.00024325212770530085
852.711949541811,0.8870075281614069,0.0024401818715863418
852.8451389062478,0.8862685505189097,0.0011834973369090082
852.9782847793585,0.8855348623791273,0.0012373703835010718
853.1113871611428,0.8848064242576126,0.007525597519582124
853.2444460516011,0.8840831964392815,-0.00024325212770530085
853.377461450733,0.8833651389836928,0.003641501870598754
853.5104333585388,0.8826522117303016,0.0005682761061101561
853.6433617750183,0.8819443743036851,0.005973671473133157
853.7762467001713,0.8812415861187505,0.01142138602487956
853.9090881339985,0.8805438063859127,0.009202455091471235
854.0418860764992,0.8798509941162513,0.016049557734331896
854.1746405276738,0.8791631081266414,0.02110653551351369
854.3073514875218,0.8784801070448608,0.019382423795603385
854.440018956044,0.8778019493146727,0.028377691997930853
854.5726429332398,0.8771285932008832,0.036347723358963774
854.7052234191093,0.8764599967943774,0.05048923785275628
854.8377604136527,0.8757961180171271,0.0638940301502964
854.9702539168699,0.8751369146271768,0.08852752428514675
855.1027039287607,0.8744823442236042,0.10918632459817589
855.2351104493254,0.8738323642514576,0.12729055335003375
855.3674734785639,0.8731869320066683,0.12712211480095384
855.499793016476,0.8725460046409369,0.13136625480418718
855.6320690630619,0.8719095391665993,0.12071445141535864
855.7643016183217,0.8712774924614636,0.1142867119492134
855.8964906822551,0.8706498212736263,0.119755483228665
856.0286362548624,0.8700264822262633,0.1243238997523545
856.1607383361431,0.8694074318223939,0.13697876396887448
856.292796926098,0.8687926264496255,0.16229075151346015
856.4248120247265,0.8681820223848697,0.1789522225645886
856.556783632029,0.8675755757990342,0.1852070402285474
856.6887117480051,0.8669732427616944,0.17803424810574814
856.8205963726547,0.8663749792457361,0.14837357935019255
856.9524375059784,0.8657807411319751,0.11751334290313208
857.0842351479757,0.8651904842137548,0.08678801818482554
857.2159892986467,0.8646041642015163,0.06789865174979898
857.3476999579918,0.8640217367273462,0.047495439344395964
857.4793671260104,0.8634431573494982,0.04245276898206766
857.610990802703,0.8628683815568928,0.04219809745909487
857.742570988069,0.8622973647735923,0.03164389493079762
857.8741076821091,0.8617300623632459,0.02797204592639383
858.0056008848227,0.8611664296335213,0.022584319807771515
858.1370505962102,0.8606064218405016,0.017382985502049662
858.2684568162715,0.8600499941930628,0.00797007797931138
