wl [nm],fluo [1/mWms],raman [1/mWms]
810.6452265776422,30.829048623576227,0.5799333391710315
810.7915068312758,30.867696146151808,0.710360336066809
810.9377435935828,30.90489214741929,0.4112011267876533
811.0839368645636,30.940652754391913,0.5261016082211629
811.2300866442183,30.974993989145222,0.519400847877193
811.3761929325467,31.007931769214192,0.29902695227423615
811.522255729549,31.039481907989604,0.009609666277315142
811.6682750352251,31.0696601151138,0.5974762127375602
811.8142508495747,31.098481996875687,0.5289925999575316
811.9601831725982,31.12596305660514,0.04564340996649838
812.1060720042954,31.152118695066626,0.1262379028986223
812.2519173446665,31.176964210852194,0.1834970959279265
812.3977191937113,31.20051480077378,0.3812518407744959
812.5434775514299,31.22278556025481,0.14791664790091114
812.6891924178221,31.243791483721097,0.34797386542731207
812.8348637928882,31.263547464991124,0.21528779192388883
812.9804916766283,31.282068297665546,0.4364812602702515
813.1260760690418,31.299368675516067,0.5213550027700845
813.2716169701291,31.31546319287364,0.3937914239576209
813.4171143798903,31.3303663450159,0.6614222028038588
813.5625682983252,31.34409252855403,0.5972919567665478
813.7079787254338,31.356656041818834,0.9867736362135879
813.8533456612164,31.36807108524618,1.2321441539484679
813.9986691056724,31.37835176176174,1.404661988074943
814.1439490588026,31.387512077165066,1.5376131497660146
814.2891855206062,31.39556594051293,1.6368610307122218
814.434378491084,31.40252716450204,1.9081665058642032
814.5795279702353,31.408409465851005,1.7164652884299403
814.7246339580603,31.413226465681678,1.3801834121042043
814.8696964545592,31.416991689899742,1.0644437107326976
815.0147154597316,31.41971856957472,0.7480927122317743
815.1596909735779,31.421420441319132,0.5114952406927151
815.304622996098,31.422110547667142,0.47290218249091215
815.449511527292,31.421802037452395,0.35760032340245645
815.5943565671596,31.42050796618522,0.41503182004645783
815.739158115701,31.418241296429148,0.14908460414229274
815.8839161729163,31.415014898176715,0.0941618505016789
816.0286307388052,31.41084154922461,0.17528906800721622
816.173301813368,31.405733935548117,0.2692406449966524
816.3179293966043,31.399704651674874,0.2520360337467858
816.4625134885146,31.392766201057952,0.7040135874425402
816.6070540890987,31.38493099644826,1.0107613384716918
816.7515511983563,31.376211360266204,1.3966266613373042
816.8960048162877,31.366619524972748,1.6583211512446945
817.0404149428931,31.35616763343972,1.5879470660824473
817.1847815781723,31.344867739319476,1.1127951509814262
817.3291047221251,31.33273180741382,1.080088871707505
817.4733843747516,31.31977171404231,1.0262608662352957
817.617620536052,31.30599924740983,0.7753259424516197
817.7618132060263,31.29142610797349,0.4713721143937424
817.9059623846741,31.276063908808815,0.17396174195704736
818.0500680719957,31.259924175975332,0.2893338763238157
818.1941302679912,31.243018348881318,0.09157599074996593
818.3381489726604,31.225357780648036,0.26067835687826935
818.4821241860034,31.20695373847316,0.4953469359502366
818.62605590802,31.18781740399355,0.19849037042207474
818.7699441387105,31.167959873647376,0.36235785615360333
818.9137888780748,31.147392159035483,0.1632043138581829
819.0575901261128,31.12612518728216,0.11898885868728651
819.2013478828245,31.10416980139513,0.1198288513429501
819.3450621482101,31.081536760624925,0.1635509087718288
819.4887329222695,31.05823674082354,0.004194002201815532
819.6323602050026,31.0342803348024,0.006886902522432625
819.7759439964093,31.00967805268967,0.004194002201815532
819.9194842964898,30.984440322286837,0.1376631738628795
820.0629811052445,30.958577489424627,0.004194002201815532
820.2064344226726,30.932099818318253,0.33328727898226823
820.3498442487746,30.905017491921935,0.2897013776801804
820.4932105835501,30.877340612282783,0.17244272664805885
820.6365334269997,30.849079200893932,0.05268209853471219
820.7798127791227,30.820243199047066,0.024057108457299817
820.9230486399198,30.79084246818419,0.12408331582642299
821.0662410093905,30.76088679024875,0.1858981346286114
821.2093898875349,30.730385868036056,0.10080555431884339
821.3524952743534,30.699349325543007,0.004194002201815532
821.4955571698455,30.667786708317195,0.060688444570112056
821.6385755740113,30.635707483805195,0.004194002201815532
821.7815504868507,30.603121041700298,0.06556401464392705
821.9244819083641,30.57003669428951,0.004194002201815532
822.0673698385511,30.53646367679981,0.2557491710473761
822.210214277412,30.502411147743807,0.14276798535044283
822.3530152249466,30.467888189264684,0.059025120448273787
822.4957726811551,30.432903807480407,0.004194002201815532
822.6384866460373,30.39746693282732,0.17095854604235383
822.7811571195932,30.361586420403007,0.09698590816802771
822.9237841018228,30.32527105030848,0.004194002201815532
823.0663675927265,30.288529527989688,0.05475762388252662
823.2089075923036,30.251370484578327,0.08498682000351464
823.3514041005545,30.213802477231972,0.2853292526780996
823.4938571174793,30.17583398947351,0.41859575003687177
823.6362666430779,30.137473431529926,0.6327088646999688
823.7786326773503,30.098729140670336,0.8726647399120151
823.9209552202964,30.059609381543396,0.8855314685156747
824.063234271916,30.020122346513997,1.0006712398353654
824.2054698322096,29.98027615599928,0.37323936023302234
824.3476619011769,29.940078858803933,0.3012342352975882
824.4898104788181,29.899538432454854,0.13954237119367038
824.6319155651329,29.85866278353513,0.004194002201815532
824.7739771601216,29.81745974801724,0.01869440938066475
824.915995263784,29.77593709159568,0.3012683364958072
825.0579698761203,29.734102510018836,0.44978142018568296
825.1999009971303,29.691963629420215,1.0550728437239056
825.3417886268138,29.649528006648943,1.432204955957275
825.4836327651714,29.606803129599594,1.7447789935244056
825.6254334122026,29.563796417541365,1.5119550906938481
825.7671905679076,29.520515221446512,1.1732223792147336
825.9089042322864,29.476966824318147,0.9199071367646834
826.0505744053389,29.433158441517303,0.7530071465456115
826.1922010870653,29.389097221089358,0.4972269626750496
826.3337842774652,29.34479024408972,0.6080019130368693
826.4753239765391,29.300244524908905,0.686451489400883
826.6168201842868,29.25546701159684,1.7591816458555969
826.7582729007083,29.210464586186525,2.754931639895965
826.8996821258032,29.165244065017045,3.9968701919021563
827.0410478595721,29.119812199055772,4.8685063072544965
827.1823701020147,29.074175674220044,4.9063275238647
827.3236488531312,29.028341111698037,4.1506245819452605
827.4648841129215,28.982315068268996,2.8401282385453976
827.6060758813853,28.936104036622773,1.8511745010480818
827.7472241585233,28.88971444567869,1.0511273258434812
827.8883289443347,28.84315266090367,0.6019870672455183
828.0293902388199,28.79642498462978,0.28737331520918796
828.1704080419789,28.749537656370958,0.004194002201815532
828.3113823538118,28.702496853139163,0.004194002201815532
828.4523131743182,28.65530868975977,0.039941422852154636
828.5932005034987,28.60797921918633,0.004194002201815532
828.7340443413527,28.56051443281459,0.021568405163098887
828.8748446878806,28.51292026079587,0.04856361309188002
829.0156015430823,28.465202572349742,0.18466267392893945
829.1563149069575,28.41736717607601,0.004194002201815532
829.2969847795067,28.369419820266007,0.010237335283205777
829.4376111607297,28.321366193213223,0.18018827775039975
829.5781940506264,28.27321192352324,0.03868487046646436
829.718733449197,28.224962580422947,0.3585447724803311
829.859229356441,28.176623674069127,0.09024809611101853
829.999681772359,28.12820065585631,0.004194002201815532
830.1400906969507,28.079698918723974,0.004194002201815532
830.2804561302162,28.03112379746301,0.004194002201815532
830.4207780721555,27.98248056902157,0.048029861212694355
830.5610565227686,27.933774452810187,0.004194002201815532
830.7012914820555,27.885010611006173,0.004194002201815532
830.841482950016,27.836194148857434,0.3876610834735793
830.9816309266503,27.787330114985473,1.1735628427936198
831.1217354119583,27.738423501687823,1.8618901629142495
831.2617964059402,27.689479245239717,1.7479168549529835
831.4018139085962,27.640502226195075,1.783363382759282
831.5417879199254,27.591497269686865,1.3361047657866083
831.6817184399284,27.54246914572672,0.9736364767332991
831.8216054686055,27.493422569503842,0.7172622103819339
831.9614490059563,27.444362201683365,0.5132966863040628
832.1012490519806,27.39529264870382,0.4474540982843239
832.2410056066789,27.346218463074088,0.1212886149749451
832.3807186700508,27.29714414366959,0.4127207388186053
832.5203882420967,27.24807413602781,0.11537029462026392
832.6600143228163,27.199012832643085,0.12196404044230749
832.7995969122095,27.1499645732608,0.39602944829313
832.9391360102767,27.100933645170816,0.17836762456765706
833.0786316170173,27.05192428350024,0.23804522036015746
833.218083732432,27.002940671505527,0.27510443494698383
833.3574923565202,26.953986940863857,0.12828467146078495
833.4968574892825,26.90506717196386,0.011951931721549151
833.6361791307186,26.856185394195627,0.004194002201815532
833.7754572808279,26.807345586240082,0.004194002201815532
833.9146919396113,26.758551676357577,0.1060371535071493
834.0538831070686,26.709807542675915,0.004194002201815532
834.1930307831998,26.661117013477604,0.004194002201815532
834.3321349680043,26.61248386748644,0.004194002201815532
834.4711956614827,26.563911834153416,0.004194002201815532
834.6102128636351,26.515404593941998,0.004194002201815532
834.7491865744611,26.46696577861256,0.004194002201815532
834.8881167939608,26.418598971506313,0.06586689138872143
835.0270035221344,26.370307707828427,0.004194002201815532
835.1658467589817,26.322095474930528,0.004194002201815532
835.3046465045027,26.27396571259246,0.07317878075028224
835.4434027586979,26.22592181330341,0.004194002201815532
835.5821155215663,26.17796712254233,0.07476933358981205
835.7207847931088,26.13010493905763,0.004194002201815532
835.8594105733248,26.082338515146244,0.03221425334891318
835.9979928622148,26.034671056932016,0.08827816580410894
836.1365316597785,25.987105724643303,0.04503671455858666
836.2750269660157,25.939645632890024,0.1309709627684066
836.4134787809271,25.892293850939918,0.1552888418154859
836.551887104512,25.845053402994175,0.4487338714822464
836.6902519367708,25.797927268462345,0.9528833013035385
836.8285732777033,25.75091838223659,1.7617890656277144
836.9668511273096,25.704029634965238,3.299108141918304
837.1050854855896,25.657263873325633,4.736613080084562
837.2432763525431,25.610623900296325,6.042284657716678
837.381423728171,25.56411247542856,6.763696937928672
837.5195276124722,25.517732315117094,6.0124004690144295
837.6575880054476,25.471486092870315,4.922389198000482
837.7956049070963,25.425376439579647,3.5514557901401593
837.9335783174188,25.379405943788342,2.452605051322528
838.0715082364153,25.33357715195951,1.515072268669556
838.2093946640855,25.28789256874351,0.7979650372216424
838.3472376004293,25.24235465724461,0.3344111186242761
838.4850370454469,25.19696583928705,0.2512149545460918
838.6227929991385,25.151728495680274,0.030339584888821717
838.7605054615037,25.106644966483653,0.0901204420203687
838.8981744325425,25.06171755127033,0.13336324683289796
839.0357999122556,25.016948509390566,0.17402378706893598
839.173381900642,24.97234006023425,0.46127275408810664
839.3109203977021,24.927894383492802,0.34254154524649066
839.4484154034362,24.883613619420387,0.5023398914774868
839.5858669178441,24.8394998690944,0.5241152814120402
839.7232749409258,24.795555194675288,1.026204302010624
839.8606394726811,24.75178161966574,1.346814486156474
839.9979605131102,24.708181129169063,1.8809745210722257
840.135238062213,24.664755670147017,1.6862430358838483
840.2724721199897,24.62150715167684,1.4597598858542828
840.4096626864401,24.578437445207676,1.112637162036631
840.5468097615643,24.535548384816277,0.7557348401725363
840.6839133453623,24.492841767462,0.8426181050680225
840.8209734378339,24.450319353241166,1.0598813844119226
840.9579900389795,24.407982865640705,1.7688179332106237
841.0949631487987,24.365833991791096,2.8527567804948006
841.2318927672917,24.323874382718675,4.701663677803223
841.3687788944585,24.28210565359719,7.76206340928697
841.5056215302991,24.24052938399874,10.393860316185597
841.6424206748134,24.199147118143937,11.86546686838728
841.7791763280012,24.1579603651515,11.964952237320539
841.9158884898633,24.11697059928705,9.952940941445775
842.0525571603987,24.076179260211283,7.019067904606176
842.1891823396084,24.03558775322743,4.442716136229238
842.3257640274913,23.995197449528078,2.6530758182733027
842.4623022240484,23.955009686441215,1.5594421862025718
842.5987969292788,23.915025767675676,0.655884174424225
842.7352481431834,23.875246963565857,0.2042281182652685
842.8716558657616,23.83567451131576,0.004194002201815532
843.0080200970135,23.796309615242325,0.004194002201815532
843.1443408369393,23.757153447018123,0.004194002201815532
843.2806180855388,23.71820714591332,0.004194002201815532
843.4168518428119,23.67947181903697,0.004194002201815532
843.553042108759,23.64094854157762,0.010333171446877315
843.6891888833799,23.602638357043244,0.004194002201815532
843.8252921666742,23.56454227750047,0.10399785678348067
843.9613519586426,23.5266612838131,0.004194002201815532
844.0973682592848,23.48899632588003,0.004194002201815532
844.2333410686006,23.451548322872362,0.12845551512262665
844.3692703865903,23.414318163469943,0.08774704774274064
844.5051562132538,23.377306706097134,0.008848499005775789
844.6409985485907,23.34051477915793,0.004194002201815532
844.7767973926018,23.303943181270405,0.004194002201815532
844.9125527452862,23.267592681500442,0.004194002201815532
845.0482646066447,23.231464019594803,0.12433600016593312
845.1839329766769,23.195557906213494,0.004194002201815532
845.319557855383,23.1598750231614,0.004194002201815532
845.4551392427628,23.124416023619396,0.004194002201815532
845.5906771388162,23.089181532374532,0.06555760327325422
845.7261715435435,23.05417214604974,0.033492950776797474
845.8616224569446,23.019388433332743,0.004194002201815532
845.9970298790194,22.984830935204325,0.1548526298228201
846.132393809768,22.95050016516586,0.0693635116189427
846.2677142491902,22.91639660946622,0.03888108795802965
846.4029911972864,22.882520727327964,0.004194002201815532
846.5382246540562,22.848872951172858,0.006454607236763942
846.6734146194998,22.81545368684666,0.004194002201815532
846.8085610936173,22.782263313843277,0.004194002201815532
846.9436640764086,22.749302185528222,0.004194002201815532
847.0787235678736,22.716570629361335,0.004194002201815532
847.2137395680121,22.684068947118917,0.004194002201815532
847.3487120768245,22.651797415115066,0.004194002201815532
847.4836410943108,22.61975628442241,0.14828352798644365
847.6185266204708,22.58794578109211,0.01976740582822772
847.7533686553046,22.55636610637316,0.004194002201815532
847.8881671988121,22.52501743693113,0.13661268852406672
848.0229222509934,22.493899925065985,0.1152554547779149
848.1576338118484,22.463013698929444,0.14928371495149254
848.2923018813773,22.432358862741573,0.2968823330671025
848.4269264595798,22.401935497006626,0.14885988786930232
848.5615075464561,22.37174365872827,0.16857241317561977
848.6960451420064,22.341783381624154,0.04934645499086289
848.8305392462303,22.312054676339702,0.035445494420816945
848.9649898591279,22.282557530661272,0.0329442606853456
849.0993969806993,22.253291909728627,0.27796008064418454
849.2337606109445,22.224257756246747,0.6681870639490733
849.3680807498635,22.19545499069683,1.2041279687196051
849.5023573974561,22.166883511546835,1.764564136869321
849.6365905537227,22.138543195461068,2.044479172668792
849.7707802186628,22.11043389750929,2.0395168981105516
849.9049263922769,22.082555451375054,1.512971014521654
850.0390290745648,22.05490766956336,1.0814058232964543
850.1730882655263,22.027490343607624,0.5353773324782449
850.3071039651616,22.000303244275965,0.22093889014585733
850.4410761734706,21.973346121776846,0.029901263291206015
850.5750048904537,21.946618705963925,0.004194002201815532
850.7088901161101,21.920120706540327,0.004194002201815532
850.8427318504405,21.89385181326219,0.004194002201815532
850.9765300934447,21.86781169614148,0.2254237379403173
851.1102848451227,21.84200000564821,0.05655039353796842
851.2439961054741,21.816416372911924,0.03737149911898573
851.3776638744997,21.79106040992239,0.09954554922015132
851.511288152199,21.765931709729912,0.01626480574218995
851.6448689385718,21.741029846644544,0.010817613319732335
851.7784062336185,21.71635437643496,0.033190019365120865
851.911900037339,21.69190483652647,0.004194002201815532
852.0453503497333,21.667680746198375,0.15153254540395744
852.1787571708012,21.643681606780643,0.1283887387411577
852.3121205005431,21.619906901849937,0.2242612295995855
852.4454403389586,21.596356097424863,0.3533646896167577
852.578716686048,21.573028642160676,0.34168030474058314
852.711949541811,21.54992396754311,0.4862722005603629
852.8451389062478,21.527041488081693,0.5453043724744409
852.9782847793585,21.50438060150231,0.5831525968291056
853.1113871611428,21.481940688939048,0.9229373900705358
853.2444460516011,21.459721115125383,0.7531315810713602
853.377461450733,21.437721228584714,0.8539234208213441
853.5104333585388,21.415940361820166,0.6738733879307417
853.6433617750183,21.39437783150368,0.5955377872156865
853.7762467001713,21.373032938664515,0.4673149748692734
853.9090881339985,21.35190496887697,0.2579295712918795
854.0418860764992,21.330993192447465,0.3245883568998393
854.1746405276738,21.310296864600907,0.3812538416775389
854.3073514875218,21.28981522566644,0.2655402006763971
854.440018956044,21.269547501262366,0.30244907607035343
854.5726429332398,21.24949290248056,0.30989896999885946
854.7052234191093,21.229650626070054,0.3403897460736109
854.8377604136527,21.210019854620004,0.10735428822907375
854.9702539168699,21.190599756741957,0.14856933368713152
855.1027039287607,21.171389487251435,0.08596096287994529
855.2351104493254,21.15238818734882,0.15019148230079188
855.3674734785639,21.13359498479955,0.004194002201815532
855.499793016476,21.11500899411368,0.08600406205813302
855.6320690630619,21.096629316724655,0.004194002201815532
855.7643016183217,21.078455041167494,0.004194002201815532
855.8964906822551,21.060485243256267,0.004194002201815532
856.0286362548624,21.042718986260827,0.004194002201815532
856.1607383361431,21.02515532108294,0.004194002201815532
856.292796926098,21.007793286431635,0.01667716001744237
856.4248120247265,20.990631908998004,0.004194002201815532
856.556783632029,20.973670203629105,0.004194002201815532
856.6887117480051,20.95690717350145,0.07737829143123197
856.8205963726547,20.940341810293532,0.004194002201815532
856.9524375059784,20.923973094357898,0.004194002201815532
857.0842351479757,20.907799994892358,0.02990273024794025
857.2159892986467,20.891821470110617,0.062141326011126256
857.3476999579918,20.87603646741217,0.004194002201815532
857.4793671260104,20.860443923551582,0.0795731354840063
857.610990802703,20.84504276480692,0.18495136002633591
857.742570988069,20.82983190714769,0.023393147191048128
857.8741076821091,20.814810256401998,0.05824320555167402
858.0056008848227,20.79997670842299,0.03784116694531748
858.1370505962102,20.785330149254655,0.014197346375250339
858.2684568162715,20.770869455296943,0.004194002201815532
858.3998195450066,20.756593493470213,0.00807171319322021
858.5311387824153,20.742501121378897,0.004194002201815532
858.662414528498,20.728591187474592,0.03350361659770123
858.7936467832542,20.714862531218444,0.06356171711224634
858.9248355466842,20.70131398324276,0.1466196866044847
859.0559808187883,20.68794436551205,0.19897035108250138
859.1870825995658,20.67475249148326,0.5823760502944086
859.3181408890172,20.661737166265535,1.0350675996764358
859.4491556871421,20.64889718677894,1.405172728195333
859.5801269939412,20.636231341912897,1.533746343755529
859.7110548094139,20.62373841268358,1.6191817491369644
